Ground Truth,Noised Signal,Model Output
-0.5331716207371895,-1.2122056074453704,-0.008467089384794235
-0.5315759886622363,-1.1989280433732297,-0.016766482964158058
-0.5299784678677443,-1.1853719637852538,-0.024897834286093712
-0.5283790640297978,-1.1715427840299122,-0.03286081925034523
-0.5267777828311634,-1.1574460335838899,-0.04065518453717232
-0.5251746299612865,-1.1430873536088018,-0.04828067868947983
-0.5235696111162631,-1.1284724944489877,-0.05573710426688194
-0.5219627319988097,-1.113607313093794,-0.06302431225776672
-0.5203539983182617,-1.0984977705837808,-0.07014217227697372
-0.5187434157905438,-1.0831499293823537,-0.07709062844514847
-0.5171309901381409,-1.0675699506940681,-0.08386964350938797
-0.5155167270900953,-1.051764091751189,-0.09047921746969223
-0.513900632381978,-1.0357387030521013,-0.09691932797431946
-0.5122827117558588,-1.019500225562548,-0.10319019854068756
-0.5106629709603041,-1.0030551878769622,-0.10929188877344131
-0.5090414157503478,-0.9864102033482173,-0.11522453278303146
-0.5074180518874608,-0.9695719671724656,-0.1209883913397789
-0.5057928851395499,-0.9525472534487429,-0.12658372521400452
-0.5041659212809276,-0.9353429121953099,-0.1320108324289322
-0.5025371660922822,-0.9179658663470277,-0.1372700035572052
-0.500906625360676,-0.9004231087064032,-0.14236167073249817
-0.4992743048795155,-0.882721698879196,-0.1472863256931305
-0.4976402104485215,-0.8648687601734089,-0.1520443558692932
-0.4960043478737271,-0.8468714764768956,-0.15663626790046692
-0.49436672296744744,-0.8287370891047192,-0.16106271743774414
-0.4927273415482502,-0.8104728936274942,-0.1653241515159607
-0.4910862094409535,-0.7920862366736373,-0.16942134499549866
-0.4894433324765954,-0.773584512712681,-0.17335498332977295
-0.4877987164924045,-0.7549751608181334,-0.1771257370710373
-0.4861523673317975,-0.7362656614129831,-0.18073436617851257
-0.48450429084434915,-0.7174635329960726,-0.184181809425354
-0.4828544928857621,-0.6985763288566964,-0.1874687820672989
-0.481202979317865,-0.6796116337706615,-0.19059638679027557
-0.47954975600858185,-0.6605770606915194,-0.19356532394886017
-0.47789482883190243,-0.6414802474192328,-0.19637681543827057
-0.4762382036678796,-0.6223288532715006,-0.19903172552585602
-0.47457988640259946,-0.6031305557372711,-0.20153120160102844
-0.4729198829281506,-0.5838930471311136,-0.20387637615203857
-0.47125819914262246,-0.5646240312376359,-0.20606841146945953
-0.46959484095007453,-0.5453312199524297,-0.20810842514038086
-0.4679298142605063,-0.5260223299229287,-0.2099977433681488
-0.4662631249898547,-0.5067050791889214,-0.21173766255378723
-0.46459477905996427,-0.4873871838203356,-0.2133294641971588
-0.46292478239855606,-0.46807635456101776,-0.21477444469928741
-0.4612531409392257,-0.44878029347348947,-0.2160741686820984
-0.45957986062141304,-0.42950669059009766,-0.2172299325466156
-0.4579049473903713,-0.410263220568734,-0.2182433009147644
-0.4562284071971681,-0.39105753936474535,-0.21911582350730896
-0.45455024599863936,-0.37189728089676666,-0.21984894573688507
-0.45287046975738976,-0.3527900537400338,-0.22044439613819122
-0.4511890844417625,-0.3337434378213432,-0.22090363502502441
-0.44950609602580816,-0.3147649811318622,-0.2212284505367279
-0.44782151048928304,-0.29586219645656214,-0.22142066061496735
-0.4461353338176179,-0.2770425581149133,-0.2214818149805069
-0.4444475720018874,-0.2583134987279849,-0.22141365706920624
-0.44275823103880796,-0.23968240599581686,-0.22121816873550415
-0.4410673169307066,-0.22115661950435672,-0.22089721262454987
-0.4393748356854904,-0.2027434275476218,-0.2204524278640747
-0.43768079331664417,-0.1844500639784662,-0.21988599002361298
-0.4359851958431993,-0.1662837050835386,-0.21919961273670197
-0.4342880492897031,-0.1482514664798751,-0.21839547157287598
-0.4325893596862165,-0.13036040005085642,-0.21747545897960663
-0.43088913306828275,-0.1126174908949149,-0.2164415717124939
-0.42918737547689684,-0.09502965431954835,-0.21529600024223328
-0.4274840929585029,-0.07760373285931438,-0.21404069662094116
-0.4257792915649632,-0.06034649332978592,-0.21267783641815186
-0.424072977353527,-0.043264623912624256,-0.21120962500572205
-0.4223651563868285,-0.026364731279691966,-0.20963811874389648
-0.42065583473285517,-0.009653337755260671,-0.20796571671962738
-0.41894501846491716,0.006863121491030633,-0.20619435608386993
-0.4172327136616446,0.023178301202605,-0.20432646572589874
-0.4155189264069564,0.0392859487608368,-0.20236419141292572
-0.4138036627900293,0.055179906863576156,-0.20030997693538666
-0.4120869289052949,0.07085411616561205,-0.19816607236862183
-0.4103687308524091,0.0863026178698813,-0.19593480229377747
-0.40864907473622025,0.10151955627663867,-0.19361838698387146
-0.40692796666676695,0.11649918128644177,-0.19121938943862915
-0.4052054127592467,0.13123585085587494,-0.18874017894268036
-0.40348141913398444,0.14572403340241,-0.18618300557136536
-0.40175599191643024,0.159958310164087,-0.1835504174232483
-0.4000291372371278,0.17393337750286436,-0.18084484338760376
-0.3983008612316829,0.18764404916494853,-0.17806871235370636
-0.39657117004076115,0.20108525847967007,-0.17522437870502472
-0.3948400698100564,0.21425206051264695,-0.17231449484825134
-0.3931075666902591,0.22713963415826705,-0.16934143006801605
-0.39137366683705405,0.23974328418270938,-0.166307732462883
-0.38963837641108867,0.25205844320669885,-0.16321584582328796
-0.38790170157794146,0.2640806736347272,-0.16006840765476227
-0.3861636485081196,0.2758056695233228,-0.15686772763729095
-0.38442422337702703,0.28722925839322405,-0.15361656248569489
-0.38268343236493313,0.2983474029812712,-0.15031731128692627
-0.38094128165697005,0.3091562029333276,-0.14697252213954926
-0.379197777443101,0.3196518964342882,-0.14358478784561157
-0.37745292591808843,0.32983086177924037,-0.1401565819978714
-0.3757067332814918,0.3396896188808129,-0.13669052720069885
-0.37395920573763547,0.34922483071518995,-0.13318905234336853
-0.37221034949557713,0.35843330470222357,-0.12965483963489532
-0.37046017076910503,0.36731199402579706,-0.126090407371521
-0.3687086757767065,0.3758579988849351,-0.12249821424484253
-0.3669558707415357,0.38406856768456377,-0.11888086050748825
-0.36520176189141124,0.39194109815645684,-0.11524083465337753
-0.36344635545878434,0.3994731384180565,-0.1115807592868805
-0.3616896576807067,0.40666238796206033,-0.10790307819843292
-0.35993167479882815,0.41350669858112304,-0.10436908900737762
-0.35817241305936454,0.4200040752237537,-0.10112117975950241
-0.35641187871306573,0.4261526767844252,-0.09786077588796616
-0.354650078015213,0.43195081682449893,-0.09459012001752853
-0.3528870172255872,0.4373969642251779,-0.09131139516830444
-0.3511227026084363,0.44248974377319805,-0.08802679926156998
-0.3493571404324733,0.4472279366764871,-0.08473855257034302
-0.3475903369708436,0.451610481011827,-0.08144879341125488
-0.34582229850109325,0.45563647210329516,-0.07815969735383987
-0.3440530313051662,0.45930516283166045,-0.0748734176158905
-0.34228254166937205,0.462615963874421,-0.07159209996461868
-0.340510835884354,0.46556844387667135,-0.06831787526607513
-0.33873792024508614,0.46816232955271175,-0.06505283713340759
-0.33696380105084134,0.47039750571825617,-0.06179912015795708
-0.3351884846051587,0.47227401525288204,-0.058558717370033264
-0.33341197721584126,0.4737920589940255,-0.055333830416202545
-0.33163428519492355,0.4749519955605999,-0.05212642624974251
-0.3298554148586391,0.47575434110869047,-0.048938535153865814
-0.3280753725274182,0.47619976901780064,-0.04577216878533363
-0.32629416452585513,0.4762891095077458,-0.042629316449165344
-0.324511797182676,0.47602334918779293,-0.039511967450380325
-0.32272827683073596,0.4754036305372334,-0.03642202168703079
-0.32094360980698716,0.4744312513166389,-0.03336146101355553
-0.3191578024524457,0.47310766391423204,-0.032013799995183945
-0.3173708611121893,0.47143447462053273,-0.030804183334112167
-0.31558279213532503,0.46941344283988834,-0.029604513198137283
-0.3137936018749563,0.467046480232166,-0.02841559424996376
-0.3120032966881806,0.4643356497907671,-0.027238178998231888
-0.31021188293605684,0.46128316485125603,-0.026073038578033447
-0.30841936698357264,0.4578913880392969,-0.02492094784975052
-0.30662575519964186,0.4541628301478233,-0.023782657459378242
-0.30483105395707194,0.45010014895430744,-0.02265888825058937
-0.3030352696325311,0.44570614797303787,-0.021550405770540237
-0.30123840860654594,0.44098377514244363,-0.020457902923226357
-0.2994404772634687,0.4359361214510286,-0.019382096827030182
-0.29764148199144425,0.43056641950150143,-0.018323704600334167
-0.2958414291824079,0.4248780420128445,-0.017283398658037186
-0.2940403252320524,0.41887450026043926,-0.016261864453554153
-0.2922381765397952,0.41255944245984283,-0.015259768813848495
-0.29043498950877583,0.40593665208673424,-0.014277778565883636
-0.2886307705458232,0.3990100461408008,-0.01209917850792408
-0.28682552606142236,0.39178367335325553,-0.00880194827914238
-0.28501926246971254,0.3842617123327849,-0.004167263861745596
-0.2832119861884537,0.3764484696617441,0.0007319443393498659
-0.2814037036389939,0.3683483779300787,0.004874673672020435
-0.2795944212462667,0.35996599372153554,0.006528925616294146
-0.27778414543875807,0.3513059955422563,0.008130822330713272
-0.2759728826484734,0.3423731816983035,0.009679345414042473
-0.2741606393109354,0.33317246812022716,0.011173498816788197
-0.2723474218651503,0.3237088861403832,0.012612328864634037
-0.2705332367535755,0.31398758021813916,0.013994898647069931
-0.2687180904221166,0.3040138056151332,0.015320315025746822
-0.26690198932009457,0.293792926028035,0.01658770814538002
-0.2650849399002124,0.2833304111691818,0.017796240746974945
-0.26326694861855643,0.2726318343071351,0.018945110961794853
-0.2614480219345454,0.2617028697568487,0.020033549517393112
-0.2596281663109322,0.2505492903361014,0.02106081135571003
-0.2578073882137701,0.23917696476756276,0.022026197984814644
-0.2559856941123798,0.22759185505135135,0.022929031401872635
-0.2541630904793468,0.21580001379217387,0.023768674582242966
-0.2523395837904884,0.20380758149036995,0.024544520303606987
-0.2505151805248199,0.19162078379083275,0.025255998596549034
-0.24868988716455284,0.1792459287052195,0.02590257115662098
-0.24686371019506106,0.16668940378860433,0.02648373693227768
-0.24503665610484776,0.15395767329427826,0.02699901908636093
-0.24320873138554278,0.14105727528334,0.027447989210486412
-0.24137994253186948,0.12799481871576218,0.027830244973301888
-0.23955029604161113,0.11477698050260428,0.028145426884293556
-0.23771979841560859,0.10141050253610241,0.028393197804689407
-0.23588845615772686,0.08790218868778232,0.028573261573910713
-0.23405627577482163,0.07425890178592895,0.028685368597507477
-0.2322232637767368,0.060487560565357944,0.028729280456900597
-0.23038942667627108,0.046595136594454356,0.028704814612865448
-0.22855477098914448,0.03258865118016155,0.028611816465854645
-0.2267193032339958,0.01847517225835158,0.028450166806578636
-0.2248830299323492,0.004261811254971715,0.028219781816005707
-0.22304595760858065,-0.010044280059719864,0.027920614928007126
-0.22120809278991538,-0.02443591274082091,0.02755264937877655
-0.21936944200639447,-0.03890586384520445,0.02711590565741062
-0.21753001179084117,-0.05344687963258523,0.026610441505908966
-0.21568980867885848,-0.06805167876502254,0.026036353781819344
-0.21384883920879555,-0.08271295552827335,0.025393763557076454
-0.2120071099217141,-0.09742338305356635,0.02468283846974373
-0.2101646273613858,-0.11217561655475816,0.023903770372271538
-0.20832139807425884,-0.12696229656279434,0.023056795820593834
-0.20647742860942417,-0.14177605217357292,0.02214217372238636
-0.20463272551861297,-0.15660950429202655,0.02116021141409874
-0.20278729535616313,-0.17145526888504092,0.020111238583922386
-0.20094114467898536,-0.1863059602249648,0.018995624035596848
-0.19909428004656082,-0.2011541941445012,0.017813773825764656
-0.19724670802090752,-0.2159925912766615,0.016566116362810135
-0.1953984351665463,-0.2308137803024201,0.015253128483891487
-0.1935494680504986,-0.245610401181604,0.013875304721295834
-0.1916998132422526,-0.2603751083884165,0.012433183379471302
-0.18984947731372942,-0.27510057412799693,0.010927331633865833
-0.18799846683928068,-0.28977949155327065,0.00935834925621748
-0.18614678839565477,-0.304404577963711,0.007726867683231831
-0.18429444856196286,-0.31896857799514206,0.00603354861959815
-0.1824414539196766,-0.3334642667915265,0.0042790863662958145
-0.18058781105259422,-0.34788445317142025,0.0024642078205943108
-0.1787335265468066,-0.3622219827658957,0.0005896664224565029
-0.17687860699069496,-0.3764697411466802,0.0
-0.17502305897489678,-0.39062065692897113,0.0
-0.1731668890922721,-0.4046677048626806,-0.002080933889374137
-0.17131010393790094,-0.4186039088893882,-0.005410923156887293
-0.16945271010904944,-0.432422345189001,-0.008838053792715073
-0.16759471420513583,-0.44611614518821713,-0.01236086804419756
-0.16573612282772815,-0.459678498555841,-0.01597786135971546
-0.16387694258051008,-0.47310265616237934,-0.017527226358652115
-0.16201718006924717,-0.4863819330151914,-0.01868637464940548
-0.16015684190178425,-0.4995097111582818,-0.01987256482243538
-0.15829593468801154,-0.5124794425514451,-0.021085314452648163
-0.1564344650398305,-0.5252846519043425,-0.02337108738720417
-0.15457243957115158,-0.5379189394871557,-0.026561643928289413
-0.15270986489786,-0.5503759839015971,-0.029804199934005737
-0.1508467476377819,-0.5626495448150286,-0.0330972783267498
-0.14898309441068172,-0.574733465662134,-0.036439359188079834
-0.14711891183822823,-0.5866216763024861,-0.039828911423683167
-0.14525420654396048,-0.5983081956444835,-0.043264344334602356
-0.14338898515328533,-0.6097871342214202,-0.04694727808237076
-0.1415232542934433,-0.6210526967334324,-0.050910405814647675
-0.13965702059347462,-0.6320991845406166,-0.05491587892174721
-0.13779029068421664,-0.6429209981174163,-0.058961864560842514
-0.13592307119826974,-0.6535126394577617,-0.0630464181303978
-0.1340553687699633,-0.6638687144330817,-0.06716757267713547
-0.13218719003535315,-0.6739839351112383,-0.07132341712713242
-0.13031854163218748,-0.6838531220178379,-0.07551196962594986
-0.12844943019987265,-0.6934712063551356,-0.07973120361566544
-0.12657986237947078,-0.7028332321662162,-0.08397915214300156
-0.12470984481366551,-0.7119343584550553,-0.08825375139713287
-0.12283938414672796,-0.720769861244416,-0.09255295246839523
-0.12096848702451413,-0.729335135593087,-0.09687475860118866
-0.1190971600944308,-0.7376256975513464,-0.10121701657772064
-0.11722541000540128,-0.7456371860627602,-0.1055777296423912
-0.11535324340786297,-0.7533653648155423,-0.10995471477508545
-0.11348066695373318,-0.7608061240324595,-0.1143459677696228
-0.11160768729637484,-0.7679554822098928,-0.11874929070472717
-0.10973431109059407,-0.7748095877915305,-0.12316261231899261
-0.107860544992606,-0.7813647207937311,-0.12758374214172363
-0.10598639566000043,-0.7876172943618205,-0.13201066851615906
-0.1041118697517394,-0.7935638562774703,-0.13644111156463623
-0.102236973928123,-0.799201090396332,-0.1408730149269104
-0.100361714850755,-0.8045258180315553,-0.14530420303344727
-0.09848609918254043,-0.8095349992727872,-0.14973251521587372
-0.09661013358765136,-0.814225734245851,-0.15415582060813904
-0.09473382473149251,-0.8185952643057417,-0.15857192873954773
-0.09285717928069886,-0.8226409731741846,-0.16297873854637146
-0.09098020390310134,-0.8263603880049906,-0.16737405955791473
-0.08910290526769248,-0.8297511803941622,-0.17175568640232086
-0.087225290044624,-0.8328111673188203,-0.17612160742282867
-0.08534736490517247,-0.8355383120180324,-0.18046961724758148
-0.08346913652170503,-0.8379307248014068,-0.1847975254058838
-0.08159061156767679,-0.8399866638027595,-0.18910327553749084
-0.07971179671759669,-0.8417045356561059,-0.19338472187519073
-0.077832698646993,-0.8430828961174177,-0.19763970375061035
-0.07595332403241098,-0.8441204506116198,-0.20186617970466614
-0.07407367955137836,-0.84481605472046,-0.20606206357479095
-0.07219377188237121,-0.8451687145977151,-0.2102252095937729
-0.07031360770481128,-0.8451775873240756,-0.2143535315990448
-0.06843319369903171,-0.8448419811902228,-0.21844498813152313
-0.0665525365462427,-0.8441613559175147,-0.2224976122379303
-0.0646716429285325,-0.8431353228077878,-0.22650930285453796
-0.0627905195288154,-0.8417636448320467,-0.230477973818779
-0.06090917303083271,-0.8400462366451984,-0.23440180718898773
-0.05902761011911845,-0.8379831645422832,-0.2382785826921463
-0.05714583747896492,-0.8355746463404179,-0.24210654199123383
-0.05526386179642023,-0.8328210512001222,-0.24588367342948914
-0.053381689758253935,-0.829722899376772,-0.24960792064666748
-0.05149932805192259,-0.8262808619079456,-0.2532775402069092
-0.04961678336556729,-0.8224957602322712,-0.2568907141685486
-0.04773406238797929,-0.8183685657462602,-0.26044532656669617
-0.04585117180856555,-0.8139003992902784,-0.2639397382736206
-0.0439681183173463,-0.8090925305754019,-0.2673720419406891
-0.0420849086049206,-0.8039463775386573,-0.2707405388355255
-0.040201549362431914,-0.7984635056402174,-0.2740434408187866
-0.038318047281565654,-0.7926456270902604,-0.2772788405418396
-0.03643440905451474,-0.7864946000171431,-0.28044527769088745
-0.03455064137394519,-0.7800124275662291,-0.2835409939289093
-0.03266675093299359,-0.7732012569420419,-0.2865641713142395
-0.030782744425232766,-0.766063378381761,-0.289513498544693
-0.028898628544637216,-0.7586012240721693,-0.2923869788646698
-0.02701440998558074,-0.7508173669997369,-0.2951834797859192
-0.025130095442801953,-0.7427145197430665,-0.2979011833667755
-0.02324569161136984,-0.734295533204183,-0.3005387485027313
-0.021361205186681293,-0.7255633952781284,-0.3030945360660553
-0.01947664286442667,-0.7165212294665719,-0.30556726455688477
-0.017592011340555342,-0.707172293429408,-0.3079555928707123
-0.0157073173112732,-0.6975199774798619,-0.31025785207748413
-0.01382256747300823,-0.6875678030236515,-0.31247302889823914
-0.011937768522376055,-0.6773194209384279,-0.31459975242614746
-0.01005292715617745,-0.6667786099019264,-0.316636860370636
-0.008168050071363894,-0.6559492746597171,-0.3185828924179077
-0.006283143965003123,-0.6448354442434264,-0.32043662667274475
-0.004398215534276643,-0.6334412701328301,-0.3221973180770874
-0.002513271476445282,-0.6217710243671342,-0.3238636553287506
-0.0006283184888147307,-0.6098290976025019,-0.32543453574180603
0.0012566367312669318,-0.5976199971223778,-0.32690882682800293
0.0031415874864436947,-0.5851483447927398,-0.32828575372695923
0.00502652707938607,-0.5724188749742691,-0.3295643627643585
0.00691144881279357,-0.5594364323813766,-0.3307436406612396
0.008796345989429166,-0.5462059698977162,-0.3318227529525757
0.010681211912153734,-0.5327325463444915,-0.332800954580307
0.012566039883928544,-0.5190213242036218,-0.3336773216724396
0.014450823207849708,-0.5050775672968545,-0.3344513475894928
0.016335555187182625,-0.4909066384238896,-0.33512213826179504
0.018220229125364473,-0.4765139969549613,-0.33568915724754333
0.020104838326038658,-0.4619051963862342,-0.33615171909332275
0.021989376093089246,-0.4470858818537202,-0.3365094065666199
0.023873835730643462,-0.4320617876095132,-0.3367615044116974
0.025758210543106133,-0.41683873446115866,-0.33690765500068665
0.02764249383519412,-0.4014226271718758,-0.3369474709033966
0.029526678911938817,-0.385819451829617,-0.33688047528266907
0.031410759078720575,-0.37003527318112805,-0.3367061913013458
0.03329472764130315,-0.35407623193097454,-0.3364247679710388
0.035178577905836186,-0.3379485420123032,-0.3360354006290436
0.037062303178889644,-0.32165848782596557,-0.33553841710090637
0.03894589676748824,-0.3052124214507762,-0.33493325114250183
0.040829351979113915,-0.2886167598252546,-0.3342200219631195
0.042712662121740276,-0.2718779819064421,-0.33339858055114746
0.04459582050386702,-0.25500262579738514,-0.33246874809265137
0.04647882043452241,-0.2379972858563883,-0.33143091201782227
0.04836165522329768,-0.22086860978158382,-0.3302847146987915
